# E [MeV]	delta_l [deg]
0.1000	0.0003
0.1010	0.0004
0.1020	0.0004
0.1030	0.0004
0.1040	0.0005
0.1050	0.0005
0.1060	0.0006
0.1070	0.0006
0.1080	0.0007
0.1090	0.0007
0.1100	0.0008
0.1110	0.0008
0.1120	0.0009
0.1130	0.0010
0.1140	0.0010
0.1150	0.0011
0.1160	0.0012
0.1170	0.0013
0.1180	0.0014
0.1190	0.0015
0.1200	0.0016
0.1210	0.0017
0.1220	0.0019
0.1230	0.0020
0.1240	0.0021
0.1250	0.0023
0.1260	0.0024
0.1270	0.0026
0.1280	0.0028
0.1290	0.0030
0.1300	0.0032
0.1310	0.0034
0.1320	0.0036
0.1330	0.0038
0.1340	0.0040
0.1350	0.0043
0.1360	0.0045
0.1370	0.0048
0.1380	0.0051
0.1390	0.0054
0.1400	0.0057
0.1410	0.0060
0.1420	0.0064
0.1430	0.0067
0.1440	0.0071
0.1450	0.0075
0.1460	0.0079
0.1470	0.0084
0.1480	0.0088
0.1490	0.0093
0.1500	0.0098
0.1510	0.0103
0.1520	0.0108
0.1530	0.0114
0.1540	0.0119
0.1550	0.0125
0.1560	0.0132
0.1570	0.0138
0.1580	0.0145
0.1590	0.0152
0.1600	0.0159
0.1610	0.0167
0.1620	0.0175
0.1630	0.0183
0.1640	0.0191
0.1650	0.0200
0.1660	0.0209
0.1670	0.0219
0.1680	0.0228
0.1690	0.0238
0.1700	0.0249
0.1710	0.0260
0.1720	0.0271
0.1730	0.0283
0.1740	0.0295
0.1750	0.0307
0.1760	0.0320
0.1770	0.0333
0.1780	0.0347
0.1790	0.0361
0.1800	0.0376
0.1810	0.0391
0.1820	0.0407
0.1830	0.0423
0.1840	0.0439
0.1850	0.0457
0.1860	0.0474
0.1870	0.0493
0.1880	0.0511
0.1890	0.0531
0.1900	0.0551
0.1910	0.0571
0.1920	0.0593
0.1930	0.0614
0.1940	0.0637
0.1950	0.0660
0.1960	0.0684
0.1970	0.0708
0.1980	0.0733
0.1990	0.0759
0.2000	0.0786
0.2010	0.0813
0.2020	0.0842
0.2030	0.0871
0.2040	0.0900
0.2050	0.0931
0.2060	0.0962
0.2070	0.0994
0.2080	0.1028
0.2090	0.1062
0.2100	0.1096
0.2110	0.1132
0.2120	0.1169
0.2130	0.1207
0.2140	0.1245
0.2150	0.1285
0.2160	0.1326
0.2170	0.1368
0.2180	0.1410
0.2190	0.1454
0.2200	0.1499
0.2210	0.1545
0.2220	0.1593
0.2230	0.1641
0.2240	0.1690
0.2250	0.1741
0.2260	0.1793
0.2270	0.1847
0.2280	0.1901
0.2290	0.1957
0.2300	0.2014
0.2310	0.2073
0.2320	0.2133
0.2330	0.2194
0.2340	0.2257
0.2350	0.2321
0.2360	0.2386
0.2370	0.2454
0.2380	0.2522
0.2390	0.2592
0.2400	0.2664
0.2410	0.2738
0.2420	0.2813
0.2430	0.2890
0.2440	0.2968
0.2450	0.3048
0.2460	0.3130
0.2470	0.3214
0.2480	0.3300
0.2490	0.3387
0.2500	0.3476
0.2510	0.3568
0.2520	0.3661
0.2530	0.3756
0.2540	0.3853
0.2550	0.3953
0.2560	0.4054
0.2570	0.4158
0.2580	0.4264
0.2590	0.4371
0.2600	0.4482
0.2610	0.4594
0.2620	0.4709
0.2630	0.4826
0.2640	0.4946
0.2650	0.5068
0.2660	0.5192
0.2670	0.5319
0.2680	0.5449
0.2690	0.5581
0.2700	0.5716
0.2710	0.5854
0.2720	0.5994
0.2730	0.6137
0.2740	0.6283
0.2750	0.6432
0.2760	0.6584
0.2770	0.6739
0.2780	0.6897
0.2790	0.7058
0.2800	0.7222
0.2810	0.7390
0.2820	0.7561
0.2830	0.7735
0.2840	0.7912
0.2850	0.8093
0.2860	0.8277
0.2870	0.8465
0.2880	0.8656
0.2890	0.8852
0.2900	0.9051
0.2910	0.9253
0.2920	0.9460
0.2930	0.9670
0.2940	0.9885
0.2950	1.0103
0.2960	1.0326
0.2970	1.0553
0.2980	1.0784
0.2990	1.1020
0.3000	1.1260
0.3010	1.1504
0.3020	1.1754
0.3030	1.2007
0.3040	1.2266
0.3050	1.2529
0.3060	1.2798
0.3070	1.3071
0.3080	1.3349
0.3090	1.3633
0.3100	1.3922
0.3110	1.4216
0.3120	1.4516
0.3130	1.4821
0.3140	1.5132
0.3150	1.5449
0.3160	1.5771
0.3170	1.6100
0.3180	1.6434
0.3190	1.6775
0.3200	1.7122
0.3210	1.7475
0.3220	1.7835
0.3230	1.8202
0.3240	1.8575
0.3250	1.8956
0.3260	1.9343
0.3270	1.9738
0.3280	2.0139
0.3290	2.0548
0.3300	2.0965
0.3310	2.1390
0.3320	2.1822
0.3330	2.2262
0.3340	2.2710
0.3350	2.3167
0.3360	2.3632
0.3370	2.4106
0.3380	2.4588
0.3390	2.5080
0.3400	2.5580
0.3410	2.6090
0.3420	2.6610
0.3430	2.7139
0.3440	2.7677
0.3450	2.8226
0.3460	2.8785
0.3470	2.9355
0.3480	2.9935
0.3490	3.0526
0.3500	3.1129
0.3510	3.1742
0.3520	3.2367
0.3530	3.3004
0.3540	3.3653
0.3550	3.4314
0.3560	3.4988
0.3570	3.5674
0.3580	3.6373
0.3590	3.7086
0.3600	3.7813
0.3610	3.8553
0.3620	3.9307
0.3630	4.0076
0.3640	4.0860
0.3650	4.1659
0.3660	4.2474
0.3670	4.3304
0.3680	4.4150
0.3690	4.5013
0.3700	4.5893
0.3710	4.6790
0.3720	4.7704
0.3730	4.8637
0.3740	4.9588
0.3750	5.0558
0.3760	5.1547
0.3770	5.2556
0.3780	5.3586
0.3790	5.4636
0.3800	5.5707
0.3810	5.6800
0.3820	5.7915
0.3830	5.9052
0.3840	6.0213
0.3850	6.1398
0.3860	6.2607
0.3870	6.3842
0.3880	6.5102
0.3890	6.6388
0.3900	6.7701
0.3910	6.9042
0.3920	7.0411
0.3930	7.1809
0.3940	7.3237
0.3950	7.4696
0.3960	7.6186
0.3970	7.7708
0.3980	7.9263
0.3990	8.0852
0.4000	8.2476
0.4010	8.4136
0.4020	8.5832
0.4030	8.7566
0.4040	8.9339
0.4050	9.1152
0.4060	9.3005
0.4070	9.4901
0.4080	9.6840
0.4090	9.8824
0.4100	10.0853
0.4110	10.2929
0.4120	10.5054
0.4130	10.7229
0.4140	10.9455
0.4150	11.1734
0.4160	11.4067
0.4170	11.6457
0.4180	11.8904
0.4190	12.1411
0.4200	12.3979
0.4210	12.6610
0.4220	12.9306
0.4230	13.2069
0.4240	13.4902
0.4250	13.7806
0.4260	14.0784
0.4270	14.3838
0.4280	14.6970
0.4290	15.0183
0.4300	15.3480
0.4310	15.6864
0.4320	16.0336
0.4330	16.3901
0.4340	16.7560
0.4350	17.1318
0.4360	17.5177
0.4370	17.9142
0.4380	18.3214
0.4390	18.7399
0.4400	19.1700
0.4410	19.6120
0.4420	20.0665
0.4430	20.5337
0.4440	21.0141
0.4450	21.5083
0.4460	22.0165
0.4470	22.5394
0.4480	23.0774
0.4490	23.6310
0.4500	24.2008
0.4510	24.7873
0.4520	25.3910
0.4530	26.0125
0.4540	26.6523
0.4550	27.3112
0.4560	27.9896
0.4570	28.6883
0.4580	29.4077
0.4590	30.1486
0.4600	30.9116
0.4610	31.6974
0.4620	32.5065
0.4630	33.3396
0.4640	34.1973
0.4650	35.0803
0.4660	35.9891
0.4670	36.9244
0.4680	37.8866
0.4690	38.8764
0.4700	39.8941
0.4710	40.9402
0.4720	42.0150
0.4730	43.1190
0.4740	44.2522
0.4750	45.4149
0.4760	46.6071
0.4770	47.8287
0.4780	49.0795
0.4790	50.3593
0.4800	51.6676
0.4810	53.0038
0.4820	54.3673
0.4830	55.7570
0.4840	57.1720
0.4850	58.6110
0.4860	60.0727
0.4870	61.5554
0.4880	63.0575
0.4890	64.5771
0.4900	66.1121
0.4910	67.6604
0.4920	69.2198
0.4930	70.7879
0.4940	72.3622
0.4950	73.9401
0.4960	75.5193
0.4970	77.0970
0.4980	78.6709
0.4990	80.2382
0.5000	81.7967
0.5010	83.3440
0.5020	84.8777
0.5030	86.3957
0.5040	87.8961
0.5050	89.3770
0.5060	90.8366
0.5070	92.2735
0.5080	93.6862
0.5090	95.0735
0.5100	96.4344
0.5110	97.7680
0.5120	99.0736
0.5130	100.3506
0.5140	101.5986
0.5150	102.8173
0.5160	104.0066
0.5170	105.1663
0.5180	106.2966
0.5190	107.3975
0.5200	108.4694
0.5210	109.5125
0.5220	110.5272
0.5230	111.5139
0.5240	112.4732
0.5250	113.4055
0.5260	114.3113
0.5270	115.1914
0.5280	116.0461
0.5290	116.8763
0.5300	117.6825
0.5310	118.4654
0.5320	119.2255
0.5330	119.9636
0.5340	120.6802
0.5350	121.3760
0.5360	122.0516
0.5370	122.7077
0.5380	123.3448
0.5390	123.9636
0.5400	124.5645
0.5410	125.1483
0.5420	125.7153
0.5430	126.2662
0.5440	126.8015
0.5450	127.3217
0.5460	127.8273
0.5470	128.3187
0.5480	128.7965
0.5490	129.2610
0.5500	129.7128
0.5510	130.1521
0.5520	130.5795
0.5530	130.9953
0.5540	131.3999
0.5550	131.7936
0.5560	132.1769
0.5570	132.5500
0.5580	132.9132
0.5590	133.2669
0.5600	133.6114
0.5610	133.9470
0.5620	134.2739
0.5630	134.5925
0.5640	134.9029
0.5650	135.2055
0.5660	135.5005
0.5670	135.7881
0.5680	136.0685
0.5690	136.3419
0.5700	136.6087
0.5710	136.8689
0.5720	137.1227
0.5730	137.3705
0.5740	137.6122
0.5750	137.8482
0.5760	138.0785
0.5770	138.3033
0.5780	138.5229
0.5790	138.7373
0.5800	138.9466
0.5810	139.1512
0.5820	139.3509
0.5830	139.5461
0.5840	139.7368
0.5850	139.9231
0.5860	140.1052
0.5870	140.2832
0.5880	140.4572
0.5890	140.6272
0.5900	140.7935
0.5910	140.9560
0.5920	141.1150
0.5930	141.2704
0.5940	141.4224
0.5950	141.5711
0.5960	141.7165
0.5970	141.8588
0.5980	141.9980
0.5990	142.1341
0.6000	142.2674
0.6010	142.3977
0.6020	142.5253
0.6030	142.6501
0.6040	142.7723
0.6050	142.8919
0.6060	143.0089
0.6070	143.1234
0.6080	143.2356
0.6090	143.3454
0.6100	143.4528
0.6110	143.5580
0.6120	143.6610
0.6130	143.7619
0.6140	143.8606
0.6150	143.9573
0.6160	144.0520
0.6170	144.1447
0.6180	144.2355
0.6190	144.3244
0.6200	144.4115
0.6210	144.4967
0.6220	144.5802
0.6230	144.6620
0.6240	144.7420
0.6250	144.8205
0.6260	144.8973
0.6270	144.9725
0.6280	145.0461
0.6290	145.1183
0.6300	145.1889
0.6310	145.2581
0.6320	145.3259
0.6330	145.3922
0.6340	145.4572
0.6350	145.5209
0.6360	145.5832
0.6370	145.6442
0.6380	145.7039
0.6390	145.7624
0.6400	145.8197
0.6410	145.8758
0.6420	145.9307
0.6430	145.9845
0.6440	146.0371
0.6450	146.0886
0.6460	146.1391
0.6470	146.1884
0.6480	146.2367
0.6490	146.2840
0.6500	146.3303
0.6510	146.3755
0.6520	146.4198
0.6530	146.4632
0.6540	146.5056
0.6550	146.5471
0.6560	146.5876
0.6570	146.6273
0.6580	146.6661
0.6590	146.7041
0.6600	146.7412
0.6610	146.7774
0.6620	146.8129
0.6630	146.8475
0.6640	146.8814
0.6650	146.9144
0.6660	146.9467
0.6670	146.9783
0.6680	147.0091
0.6690	147.0392
0.6700	147.0686
0.6710	147.0973
0.6720	147.1253
0.6730	147.1526
0.6740	147.1792
0.6750	147.2052
0.6760	147.2305
0.6770	147.2552
0.6780	147.2793
0.6790	147.3027
0.6800	147.3256
0.6810	147.3478
0.6820	147.3695
0.6830	147.3905
0.6840	147.4110
0.6850	147.4310
0.6860	147.4504
0.6870	147.4692
0.6880	147.4875
0.6890	147.5053
0.6900	147.5225
0.6910	147.5393
0.6920	147.5555
0.6930	147.5712
0.6940	147.5865
0.6950	147.6012
0.6960	147.6155
0.6970	147.6293
0.6980	147.6427
0.6990	147.6556
0.7000	147.6680
0.7010	147.6800
0.7020	147.6916
0.7030	147.7027
0.7040	147.7134
0.7050	147.7237
0.7060	147.7336
0.7070	147.7431
0.7080	147.7521
0.7090	147.7608
0.7100	147.7691
0.7110	147.7770
0.7120	147.7845
0.7130	147.7916
0.7140	147.7984
0.7150	147.8048
0.7160	147.8109
0.7170	147.8165
0.7180	147.8219
0.7190	147.8269
0.7200	147.8315
0.7210	147.8359
0.7220	147.8398
0.7230	147.8435
0.7240	147.8468
0.7250	147.8499
0.7260	147.8526
0.7270	147.8549
0.7280	147.8570
0.7290	147.8588
0.7300	147.8603
0.7310	147.8615
0.7320	147.8624
0.7330	147.8630
0.7340	147.8633
0.7350	147.8633
0.7360	147.8631
0.7370	147.8626
0.7380	147.8618
0.7390	147.8608
0.7400	147.8595
0.7410	147.8579
0.7420	147.8561
0.7430	147.8540
0.7440	147.8517
0.7450	147.8491
0.7460	147.8463
0.7470	147.8432
0.7480	147.8399
0.7490	147.8363
0.7500	147.8326
0.7510	147.8286
0.7520	147.8243
0.7530	147.8199
0.7540	147.8152
0.7550	147.8103
0.7560	147.8052
0.7570	147.7998
0.7580	147.7943
0.7590	147.7885
0.7600	147.7826
0.7610	147.7764
0.7620	147.7701
0.7630	147.7635
0.7640	147.7567
0.7650	147.7498
0.7660	147.7426
0.7670	147.7353
0.7680	147.7277
0.7690	147.7200
0.7700	147.7121
0.7710	147.7040
0.7720	147.6958
0.7730	147.6873
0.7740	147.6787
0.7750	147.6699
0.7760	147.6609
0.7770	147.6518
0.7780	147.6425
0.7790	147.6330
0.7800	147.6233
0.7810	147.6135
0.7820	147.6036
0.7830	147.5935
0.7840	147.5832
0.7850	147.5727
0.7860	147.5621
0.7870	147.5514
0.7880	147.5405
0.7890	147.5294
0.7900	147.5182
0.7910	147.5069
0.7920	147.4954
0.7930	147.4838
0.7940	147.4720
0.7950	147.4601
0.7960	147.4481
0.7970	147.4359
0.7980	147.4235
0.7990	147.4111
0.8000	147.3985
0.8010	147.3858
0.8020	147.3729
0.8030	147.3599
0.8040	147.3468
0.8050	147.3336
0.8060	147.3202
0.8070	147.3067
0.8080	147.2931
0.8090	147.2794
0.8100	147.2656
0.8110	147.2516
0.8120	147.2375
0.8130	147.2233
0.8140	147.2090
0.8150	147.1946
0.8160	147.1800
0.8170	147.1654
0.8180	147.1506
0.8190	147.1357
0.8200	147.1208
0.8210	147.1057
0.8220	147.0905
0.8230	147.0752
0.8240	147.0598
0.8250	147.0443
0.8260	147.0287
0.8270	147.0130
0.8280	146.9972
0.8290	146.9813
0.8300	146.9653
0.8310	146.9492
0.8320	146.9330
0.8330	146.9167
0.8340	146.9003
0.8350	146.8838
0.8360	146.8672
0.8370	146.8506
0.8380	146.8338
0.8390	146.8170
0.8400	146.8000
0.8410	146.7830
0.8420	146.7659
0.8430	146.7487
0.8440	146.7314
0.8450	146.7141
0.8460	146.6966
0.8470	146.6791
0.8480	146.6615
0.8490	146.6438
0.8500	146.6260
0.8510	146.6082
0.8520	146.5903
0.8530	146.5722
0.8540	146.5542
0.8550	146.5360
0.8560	146.5178
0.8570	146.4994
0.8580	146.4811
0.8590	146.4626
0.8600	146.4441
0.8610	146.4254
0.8620	146.4068
0.8630	146.3880
0.8640	146.3692
0.8650	146.3503
0.8660	146.3313
0.8670	146.3123
0.8680	146.2932
0.8690	146.2741
0.8700	146.2548
0.8710	146.2355
0.8720	146.2162
0.8730	146.1967
0.8740	146.1773
0.8750	146.1577
0.8760	146.1381
0.8770	146.1184
0.8780	146.0987
0.8790	146.0789
0.8800	146.0590
0.8810	146.0391
0.8820	146.0191
0.8830	145.9991
0.8840	145.9790
0.8850	145.9588
0.8860	145.9386
0.8870	145.9183
0.8880	145.8980
0.8890	145.8776
0.8900	145.8572
0.8910	145.8367
0.8920	145.8161
0.8930	145.7955
0.8940	145.7749
0.8950	145.7542
0.8960	145.7334
0.8970	145.7126
0.8980	145.6918
0.8990	145.6708
0.9000	145.6499
0.9010	145.6289
0.9020	145.6078
0.9030	145.5867
0.9040	145.5655
0.9050	145.5443
0.9060	145.9769
0.9070	145.9531
0.9080	145.9292
0.9090	145.9053
0.9100	145.8814
0.9110	145.8575
0.9120	145.8335
0.9130	145.8095
0.9140	145.7854
0.9150	145.7614
0.9160	145.7372
0.9170	145.7131
0.9180	145.6889
0.9190	145.6647
0.9200	145.6404
0.9210	145.6161
0.9220	145.5918
0.9230	145.5675
0.9240	145.5431
0.9250	145.5187
0.9260	145.4942
0.9270	145.4698
0.9280	145.4452
0.9290	145.4207
0.9300	145.3961
0.9310	145.3715
0.9320	145.3469
0.9330	145.3223
0.9340	145.2976
0.9350	145.2729
0.9360	145.2481
0.9370	145.2234
0.9380	145.1986
0.9390	145.1737
0.9400	145.1489
0.9410	145.1240
0.9420	145.0991
0.9430	145.0742
0.9440	145.0492
0.9450	145.0242
0.9460	144.9992
0.9470	144.9742
0.9480	144.9491
0.9490	144.9240
0.9500	144.8989
0.9510	144.8738
0.9520	144.8486
0.9530	144.8234
0.9540	144.7982
0.9550	144.7730
0.9560	144.7477
0.9570	144.7225
0.9580	144.6972
0.9590	144.6718
0.9600	144.6465
0.9610	144.6211
0.9620	144.5957
0.9630	144.5703
0.9640	144.5449
0.9650	144.5194
0.9660	144.4939
0.9670	144.4685
0.9680	144.4429
0.9690	144.4174
0.9700	144.3918
0.9710	144.3663
0.9720	144.3406
0.9730	144.3150
0.9740	144.2894
0.9750	144.2637
0.9760	144.2381
0.9770	144.2124
0.9780	144.1866
0.9790	144.1609
0.9800	144.1351
0.9810	144.1094
0.9820	144.0836
0.9830	144.0578
0.9840	144.0319
0.9850	144.0061
0.9860	143.9802
0.9870	143.9544
0.9880	143.9285
0.9890	143.9026
0.9900	143.8766
0.9910	143.8507
0.9920	143.8247
0.9930	143.7987
0.9940	143.7727
0.9950	143.7467
0.9960	143.7207
0.9970	143.6947
0.9980	143.6686
0.9990	143.6425
1.0000	143.6165
1.0010	143.5904
1.0020	143.5642
1.0030	143.5381
1.0040	143.5120
1.0050	143.4858
1.0060	143.4596
1.0070	143.4334
1.0080	143.4072
1.0090	143.3810
1.0100	143.3548
1.0110	143.3285
1.0120	143.3023
1.0130	143.2760
1.0140	143.2497
1.0150	143.2234
1.0160	143.1971
1.0170	143.1708
1.0180	143.1445
1.0190	143.1181
1.0200	143.0918
1.0210	143.0654
1.0220	143.0390
1.0230	143.0126
1.0240	142.9862
1.0250	142.9598
1.0260	142.9334
1.0270	142.9070
1.0280	142.8805
1.0290	142.8540
1.0300	142.8276
1.0310	142.8011
1.0320	142.7746
1.0330	142.7481
1.0340	142.7216
1.0350	142.6951
1.0360	142.6685
1.0370	142.6420
1.0380	142.6154
1.0390	142.5889
1.0400	142.5623
1.0410	142.5357
1.0420	142.5091
1.0430	142.4825
1.0440	142.4559
1.0450	142.4293
1.0460	142.4027
1.0470	142.3760
1.0480	142.3494
1.0490	142.3227
1.0500	142.2960
1.0510	142.2694
1.0520	142.2427
1.0530	142.2160
1.0540	142.1893
1.0550	142.1626
1.0560	142.1359
1.0570	142.1092
1.0580	142.0825
1.0590	142.0557
1.0600	142.0290
1.0610	142.0022
1.0620	141.9755
1.0630	141.9487
1.0640	141.9219
1.0650	141.8952
1.0660	141.8684
1.0670	141.8416
1.0680	141.8148
1.0690	141.7880
1.0700	141.7612
1.0710	141.7343
1.0720	141.7075
1.0730	141.6807
1.0740	141.6539
1.0750	141.6270
1.0760	141.6002
1.0770	141.5733
1.0780	141.5464
1.0790	141.5196
1.0800	141.4927
1.0810	141.4658
1.0820	141.4389
1.0830	141.4121
1.0840	141.3852
1.0850	141.3583
1.0860	141.3314
1.0870	141.3045
1.0880	141.2775
1.0890	141.2506
1.0900	141.2237
1.0910	141.1968
1.0920	141.1698
1.0930	141.1429
1.0940	141.1160
1.0950	141.0890
1.0960	141.0621
1.0970	141.0351
1.0980	141.0082
1.0990	140.9812
1.1000	140.9542
1.1010	140.9273
1.1020	140.9003
1.1030	140.8733
1.1040	140.8463
1.1050	140.8193
1.1060	140.7924
1.1070	140.7654
1.1080	140.7384
1.1090	140.7114
1.1100	140.6844
1.1110	140.6574
1.1120	140.6304
1.1130	140.6033
1.1140	140.5763
1.1150	140.5493
1.1160	140.5223
1.1170	140.4953
1.1180	140.4682
1.1190	140.4412
1.1200	140.4142
1.1210	140.3872
1.1220	140.3601
1.1230	140.3331
1.1240	140.3060
1.1250	140.2790
1.1260	140.2520
1.1270	140.2249
1.1280	140.1979
1.1290	140.1708
1.1300	140.1438
1.1310	140.1167
1.1320	140.0897
1.1330	140.0626
1.1340	140.0355
1.1350	140.0085
1.1360	139.9814
1.1370	139.9544
1.1380	139.9273
1.1390	139.9002
1.1400	139.8732
1.1410	139.8461
1.1420	139.8190
1.1430	139.7919
1.1440	139.7649
1.1450	139.7378
1.1460	139.7107
1.1470	139.6837
1.1480	139.6566
1.1490	139.6295
1.1500	139.6024
1.1510	139.5753
1.1520	139.5483
1.1530	139.5212
1.1540	139.4941
1.1550	139.4670
1.1560	139.4399
1.1570	139.4129
1.1580	139.3858
1.1590	139.3587
1.1600	139.3316
1.1610	139.3045
1.1620	139.2774
1.1630	139.2504
1.1640	139.2233
1.1650	139.1962
1.1660	139.1691
1.1670	139.1420
1.1680	139.1150
1.1690	139.0879
1.1700	139.0608
1.1710	139.0337
1.1720	139.0066
1.1730	138.9795
1.1740	138.9525
1.1750	138.9254
1.1760	138.8983
1.1770	138.8712
1.1780	138.8441
1.1790	138.8171
1.1800	138.7900
1.1810	138.7629
1.1820	138.7358
1.1830	138.7088
1.1840	138.6817
1.1850	138.6546
1.1860	138.6276
1.1870	138.6005
1.1880	138.5734
1.1890	138.5463
1.1900	138.5193
1.1910	138.4922
1.1920	138.4651
1.1930	138.4381
1.1940	138.4110
1.1950	138.3840
1.1960	138.3569
1.1970	138.3298
1.1980	138.3028
1.1990	138.2757
1.2000	138.2487
1.2010	138.2216
1.2020	138.1946
1.2030	138.1675
1.2040	138.1405
1.2050	138.1134
1.2060	138.0864
1.2070	138.0593
1.2080	138.0323
1.2090	138.0053
1.2100	137.9782
1.2110	137.9512
1.2120	137.9242
1.2130	137.8971
1.2140	137.8701
1.2150	137.8431
1.2160	137.8161
1.2170	137.7890
1.2180	137.7620
1.2190	137.7350
1.2200	137.7080
1.2210	137.6810
1.2220	137.6540
1.2230	137.6269
1.2240	137.5999
1.2250	137.5729
1.2260	137.5459
1.2270	137.5189
1.2280	137.4919
1.2290	137.4650
1.2300	137.4380
1.2310	137.4110
1.2320	137.3840
1.2330	137.3570
1.2340	137.3300
1.2350	137.3030
1.2360	137.2761
1.2370	137.2491
1.2380	137.2221
1.2390	137.1952
1.2400	137.1682
1.2410	137.1412
1.2420	137.1143
1.2430	137.0873
1.2440	137.0604
1.2450	137.0334
1.2460	137.0065
1.2470	136.9795
1.2480	136.9526
1.2490	136.9257
1.2500	136.8987
1.2510	136.8718
1.2520	136.8449
1.2530	136.8180
1.2540	136.7910
1.2550	136.7641
1.2560	136.7372
1.2570	136.7103
1.2580	136.6834
1.2590	136.6565
1.2600	136.6296
1.2610	136.6027
1.2620	136.5758
1.2630	136.5489
1.2640	136.5220
1.2650	136.4952
1.2660	136.4683
1.2670	136.4414
1.2680	136.4145
1.2690	136.3877
1.2700	136.3608
1.2710	136.3340
1.2720	136.3071
1.2730	136.2802
1.2740	136.2534
1.2750	136.2266
1.2760	136.1997
1.2770	136.1729
1.2780	136.1460
1.2790	136.1192
1.2800	136.0924
1.2810	136.0656
1.2820	136.0388
1.2830	136.0119
1.2840	135.9851
1.2850	135.9583
1.2860	135.9315
1.2870	135.9047
1.2880	135.8779
1.2890	135.8512
1.2900	135.8244
1.2910	135.7976
1.2920	135.7708
1.2930	135.7441
1.2940	135.7173
1.2950	135.6905
1.2960	135.6638
1.2970	135.6370
1.2980	135.6103
1.2990	135.5835
1.3000	135.5568
1.3010	135.5300
1.3020	135.5033
1.3030	135.4766
1.3040	135.4499
1.3050	135.4231
1.3060	135.3964
1.3070	135.3697
1.3080	135.3430
1.3090	135.3163
1.3100	135.2896
1.3110	135.2629
1.3120	135.2362
1.3130	135.2096
1.3140	135.1829
1.3150	135.1562
1.3160	135.1295
1.3170	135.1029
1.3180	135.0762
1.3190	135.0496
1.3200	135.0229
1.3210	134.9963
1.3220	134.9696
1.3230	134.9430
1.3240	134.9164
1.3250	134.8898
1.3260	134.8631
1.3270	134.8365
1.3280	134.8099
1.3290	134.7833
1.3300	134.7567
1.3310	134.7301
1.3320	134.7035
1.3330	134.6769
1.3340	134.6504
1.3350	134.6238
1.3360	134.5972
1.3370	134.5707
1.3380	134.5441
1.3390	134.5175
1.3400	134.4910
1.3410	134.4644
1.3420	134.4379
1.3430	134.4114
1.3440	134.3848
1.3450	134.3583
1.3460	134.3318
1.3470	134.3053
1.3480	134.2788
1.3490	134.2523
1.3500	134.2258
1.3510	134.1993
1.3520	134.1728
1.3530	134.1463
1.3540	134.1198
1.3550	134.0934
1.3560	134.0669
1.3570	134.0404
1.3580	134.0140
1.3590	133.9875
1.3600	133.9611
1.3610	133.9347
1.3620	133.9082
1.3630	133.8818
1.3640	133.8554
1.3650	133.8290
1.3660	133.8025
1.3670	133.7761
1.3680	133.7497
1.3690	133.7233
1.3700	133.6970
1.3710	133.6706
1.3720	133.6442
1.3730	133.6178
1.3740	133.5915
1.3750	133.5651
1.3760	133.5387
1.3770	133.5124
1.3780	133.4860
1.3790	133.4597
1.3800	133.4334
1.3810	133.4070
1.3820	133.3807
1.3830	133.3544
1.3840	133.3281
1.3850	133.3018
1.3860	133.2755
1.3870	133.2492
1.3880	133.2229
1.3890	133.1966
1.3900	133.1704
1.3910	133.1441
1.3920	133.1178
1.3930	133.0916
1.3940	133.0653
1.3950	133.0391
1.3960	133.0128
1.3970	132.9866
1.3980	132.9604
1.3990	132.9341
1.4000	132.9079
1.4010	132.8817
1.4020	132.8555
1.4030	132.8293
1.4040	132.8031
1.4050	132.7769
1.4060	132.7507
1.4070	132.7245
1.4080	132.6984
1.4090	132.6722
1.4100	132.6461
1.4110	132.6199
1.4120	132.5938
1.4130	132.5676
1.4140	132.5415
1.4150	132.5154
1.4160	132.4892
1.4170	132.4631
1.4180	132.4370
1.4190	132.4109
1.4200	132.3848
1.4210	132.3587
1.4220	132.3326
1.4230	132.3065
1.4240	132.2805
1.4250	132.2544
1.4260	132.2283
1.4270	132.2023
1.4280	132.1762
1.4290	132.1502
1.4300	132.1242
1.4310	132.0981
1.4320	132.0721
1.4330	132.0461
1.4340	132.0201
1.4350	131.9941
1.4360	131.9681
1.4370	131.9421
1.4380	131.9161
1.4390	131.8901
1.4400	132.1732
1.4410	132.1483
1.4420	132.1233
1.4430	132.0983
1.4440	132.0733
1.4450	132.0484
1.4460	132.0234
1.4470	131.9985
1.4480	131.9735
1.4490	131.9486
1.4500	131.9237
1.4510	131.8987
1.4520	131.8738
1.4530	131.8489
1.4540	131.8240
1.4550	131.7991
1.4560	131.7742
1.4570	131.7493
1.4580	131.7244
1.4590	131.6995
1.4600	131.6747
1.4610	131.6498
1.4620	131.6249
1.4630	131.6001
1.4640	131.5752
1.4650	131.5504
1.4660	131.5255
1.4670	131.5007
1.4680	131.4759
1.4690	131.4510
1.4700	131.4262
1.4710	131.4014
1.4720	131.3766
1.4730	131.3518
1.4740	131.3270
1.4750	131.3022
1.4760	131.2774
1.4770	131.2527
1.4780	131.2279
1.4790	131.2031
1.4800	131.1784
1.4810	131.1536
1.4820	131.1289
1.4830	131.1041
1.4840	131.0794
1.4850	131.0547
1.4860	131.0299
1.4870	131.0052
1.4880	130.9805
1.4890	130.9558
1.4900	130.9311
1.4910	130.9064
1.4920	130.8817
1.4930	130.8570
1.4940	130.8324
1.4950	130.8077
1.4960	130.7830
1.4970	130.7584
1.4980	130.7337
1.4990	130.7091
1.5000	130.6844
1.5010	130.6598
1.5020	130.6352
1.5030	130.6105
1.5040	130.5859
1.5050	130.5613
1.5060	130.5367
1.5070	130.5121
1.5080	130.4875
1.5090	130.4629
1.5100	130.4383
1.5110	130.4138
1.5120	130.3892
1.5130	130.3646
1.5140	130.3401
1.5150	130.3155
1.5160	130.2910
1.5170	130.2664
1.5180	130.2419
1.5190	130.2174
1.5200	130.1929
1.5210	130.1684
1.5220	130.1439
1.5230	130.1193
1.5240	130.0949
1.5250	130.0704
1.5260	130.0459
1.5270	130.0214
1.5280	129.9969
1.5290	129.9725
1.5300	129.9480
1.5310	129.9236
1.5320	129.8991
1.5330	129.8747
1.5340	129.8502
1.5350	129.8258
1.5360	129.8014
1.5370	129.7770
1.5380	129.7526
1.5390	129.7282
1.5400	129.7038
1.5410	129.6794
1.5420	129.6550
1.5430	129.6306
1.5440	129.6062
1.5450	129.5819
1.5460	129.5575
1.5470	129.5332
1.5480	129.5088
1.5490	129.4845
1.5500	129.4601
1.5510	129.4358
1.5520	129.4115
1.5530	129.3872
1.5540	129.3629
1.5550	129.3386
1.5560	129.3143
1.5570	129.2900
1.5580	129.2657
1.5590	129.2414
1.5600	129.2171
1.5610	129.1929
1.5620	129.1686
1.5630	129.1444
1.5640	129.1201
1.5650	129.0959
1.5660	129.0716
1.5670	129.0474
1.5680	129.0232
1.5690	128.9990
1.5700	128.9748
1.5710	128.9506
1.5720	128.9264
1.5730	128.9022
1.5740	128.8780
1.5750	128.8538
1.5760	128.8296
1.5770	128.8055
1.5780	128.7813
1.5790	128.7572
1.5800	128.7330
1.5810	128.7089
1.5820	128.6848
1.5830	128.6606
1.5840	128.6365
1.5850	128.6124
1.5860	128.5883
1.5870	128.5642
1.5880	128.5401
1.5890	128.5160
1.5900	128.4919
1.5910	128.4679
1.5920	128.4438
1.5930	128.4197
1.5940	128.3957
1.5950	128.3716
1.5960	128.3476
1.5970	128.3235
1.5980	128.2995
1.5990	128.2755
1.6000	128.2515
1.6010	128.2275
1.6020	128.2035
1.6030	128.1795
1.6040	128.1555
1.6050	128.1315
1.6060	128.1075
1.6070	128.0835
1.6080	128.0596
1.6090	128.0356
1.6100	128.0116
1.6110	127.9877
1.6120	127.9638
1.6130	127.9398
1.6140	127.9159
1.6150	127.8920
1.6160	127.8681
1.6170	127.8442
1.6180	127.8203
1.6190	127.7964
1.6200	127.7725
1.6210	127.7486
1.6220	127.7247
1.6230	127.7008
1.6240	127.6770
1.6250	127.6531
1.6260	127.6293
1.6270	127.6054
1.6280	127.5816
1.6290	127.5578
1.6300	127.5339
1.6310	127.5101
1.6320	127.4863
1.6330	127.4625
1.6340	127.4387
1.6350	127.4149
1.6360	127.3911
1.6370	127.3674
1.6380	127.3436
1.6390	127.3198
1.6400	127.2961
1.6410	127.2723
1.6420	127.2486
1.6430	127.2248
1.6440	127.2011
1.6450	127.1774
1.6460	127.1536
1.6470	127.1299
1.6480	127.1062
1.6490	127.0825
1.6500	127.0588
1.6510	127.0351
1.6520	127.0115
1.6530	126.9878
1.6540	126.9641
1.6550	126.9405
1.6560	126.9168
1.6570	126.8932
1.6580	126.8695
1.6590	126.8459
1.6600	126.8223
1.6610	126.7986
1.6620	126.7750
1.6630	126.7514
1.6640	126.7278
1.6650	126.7042
1.6660	126.6806
1.6670	126.6570
1.6680	126.6335
1.6690	126.6099
1.6700	126.5863
1.6710	126.5628
1.6720	126.5392
1.6730	126.5157
1.6740	126.4921
1.6750	126.4686
1.6760	126.4451
1.6770	126.4216
1.6780	126.3981
1.6790	126.3746
1.6800	126.3511
1.6810	126.3276
1.6820	126.3041
1.6830	126.2806
1.6840	126.2571
1.6850	126.2337
1.6860	126.2102
1.6870	126.1868
1.6880	126.1633
1.6890	126.1399
1.6900	126.1164
1.6910	126.0930
1.6920	126.0696
1.6930	126.0462
1.6940	126.0228
1.6950	125.9994
1.6960	125.9760
1.6970	125.9526
1.6980	125.9292
1.6990	125.9058
1.7000	125.8825
1.7010	125.8591
1.7020	125.8358
1.7030	125.8124
1.7040	125.7891
1.7050	125.7657
1.7060	125.7424
1.7070	125.7191
1.7080	125.6958
1.7090	125.6725
1.7100	125.6492
1.7110	125.6259
1.7120	125.6026
1.7130	125.5793
1.7140	125.5560
1.7150	125.5328
1.7160	125.5095
1.7170	125.4862
1.7180	125.4630
1.7190	125.4398
1.7200	125.4165
1.7210	125.3933
1.7220	125.3701
1.7230	125.3468
1.7240	125.3236
1.7250	125.3004
1.7260	125.2772
1.7270	125.2541
1.7280	125.2309
1.7290	125.2077
1.7300	125.1845
1.7310	125.1614
1.7320	125.1382
1.7330	125.1151
1.7340	125.0919
1.7350	125.0688
1.7360	125.0456
1.7370	125.0225
1.7380	124.9994
1.7390	124.9763
1.7400	124.9532
1.7410	124.9301
1.7420	124.9070
1.7430	124.8839
1.7440	124.8608
1.7450	124.8378
1.7460	124.8147
1.7470	124.7916
1.7480	124.7686
1.7490	124.7455
1.7500	124.7225
1.7510	124.6995
1.7520	124.6764
1.7530	124.6534
1.7540	124.6304
1.7550	124.6074
1.7560	124.5844
1.7570	124.5614
1.7580	124.5384
1.7590	124.5154
1.7600	124.4925
1.7610	124.4695
1.7620	124.4465
1.7630	124.4236
1.7640	124.4006
1.7650	124.3777
1.7660	124.3548
1.7670	124.3318
1.7680	124.3089
1.7690	124.2860
1.7700	124.2631
1.7710	124.2402
1.7720	124.2173
1.7730	124.1944
1.7740	124.1715
1.7750	124.1487
1.7760	124.1258
1.7770	124.1029
1.7780	124.0801
1.7790	124.0572
1.7800	124.0344
1.7810	124.0115
1.7820	123.9887
1.7830	123.9659
1.7840	123.9431
1.7850	123.9203
1.7860	123.8975
1.7870	123.8747
1.7880	123.8519
1.7890	123.8291
1.7900	123.8063
1.7910	123.7835
1.7920	123.7608
1.7930	123.7380
1.7940	123.7153
1.7950	123.6925
1.7960	123.6698
1.7970	123.6471
1.7980	123.6243
1.7990	123.6016
1.8000	123.5789
1.8010	123.5562
1.8020	123.5335
1.8030	123.5108
1.8040	123.4881
1.8050	123.4654
1.8060	123.4428
1.8070	123.4201
1.8080	123.3974
1.8090	123.3748
1.8100	123.3521
1.8110	123.3295
1.8120	123.3069
1.8130	123.2842
1.8140	123.2616
1.8150	123.2390
1.8160	123.2164
1.8170	123.1938
1.8180	123.1712
1.8190	123.1486
1.8200	123.1260
1.8210	123.1035
1.8220	123.0809
1.8230	123.0583
1.8240	123.0358
1.8250	123.0132
1.8260	122.9907
1.8270	122.9681
1.8280	122.9456
1.8290	122.9231
1.8300	122.9006
1.8310	122.8781
1.8320	122.8556
1.8330	122.8331
1.8340	122.8106
1.8350	122.7881
1.8360	122.7656
1.8370	122.7431
1.8380	122.7207
1.8390	122.6982
1.8400	122.6758
1.8410	122.6533
1.8420	122.6309
1.8430	122.6084
1.8440	122.5860
1.8450	122.5636
1.8460	122.5412
1.8470	122.5188
1.8480	122.4964
1.8490	122.4740
1.8500	122.4516
1.8510	122.4292
1.8520	122.4068
1.8530	122.3845
1.8540	122.3621
1.8550	122.3397
1.8560	122.3174
1.8570	122.2951
1.8580	122.2727
1.8590	122.2504
1.8600	122.2281
1.8610	122.2058
1.8620	122.1834
1.8630	122.1611
1.8640	122.1388
1.8650	122.1166
1.8660	122.0943
1.8670	122.0720
1.8680	122.0497
1.8690	122.0275
1.8700	122.0052
1.8710	121.9829
1.8720	121.9607
1.8730	121.9385
1.8740	121.9162
1.8750	121.8940
1.8760	121.8718
1.8770	121.8496
1.8780	121.8274
1.8790	121.8052
1.8800	121.7830
1.8810	121.7608
1.8820	121.7386
1.8830	121.7164
1.8840	121.6943
1.8850	121.6721
1.8860	121.6499
1.8870	121.6278
1.8880	121.6056
1.8890	121.5835
1.8900	121.5614
1.8910	121.5393
1.8920	121.5171
1.8930	121.4950
1.8940	121.4729
1.8950	121.4508
1.8960	121.4287
1.8970	121.4066
1.8980	121.3846
1.8990	121.3625
1.9000	121.3404
1.9010	121.3184
1.9020	121.2963
1.9030	121.2743
1.9040	121.2522
1.9050	121.2302
1.9060	121.2082
1.9070	121.1861
1.9080	121.1641
1.9090	121.1421
1.9100	121.1201
1.9110	121.0981
1.9120	121.0761
1.9130	121.0541
1.9140	121.0322
1.9150	121.0102
1.9160	120.9882
1.9170	120.9663
1.9180	120.9443
1.9190	120.9224
1.9200	120.9004
1.9210	120.8785
1.9220	120.8566
1.9230	120.8347
1.9240	120.8128
1.9250	120.7908
1.9260	120.7689
1.9270	120.7470
1.9280	120.7252
1.9290	120.7033
1.9300	120.6814
1.9310	120.6595
1.9320	120.6377
1.9330	120.6158
1.9340	120.5940
1.9350	120.5721
1.9360	120.5503
1.9370	120.5285
1.9380	120.5066
1.9390	120.4848
1.9400	120.4630
1.9410	120.4412
1.9420	120.4194
1.9430	120.3976
1.9440	120.3758
1.9450	120.3540
1.9460	120.3323
1.9470	120.3105
1.9480	120.2887
1.9490	120.2670
1.9500	120.2452
1.9510	120.2235
1.9520	120.2017
1.9530	120.1800
1.9540	120.1583
1.9550	120.1366
1.9560	120.1149
1.9570	120.0932
1.9580	120.0715
1.9590	120.0498
1.9600	120.0281
1.9610	120.0064
1.9620	119.9847
1.9630	119.9631
1.9640	119.9414
1.9650	119.9197
1.9660	119.8981
1.9670	119.8764
1.9680	119.8548
1.9690	119.8332
1.9700	119.8116
1.9710	119.7899
1.9720	119.7683
1.9730	119.7467
1.9740	119.7251
1.9750	119.7035
1.9760	119.6819
1.9770	119.6604
1.9780	119.6388
1.9790	119.6172
1.9800	119.5957
1.9810	119.5741
1.9820	119.5526
1.9830	119.5310
1.9840	119.5095
1.9850	119.4879
1.9860	119.4664
1.9870	119.4449
1.9880	119.4234
1.9890	119.4019
1.9900	119.3804
1.9910	119.3589
1.9920	119.3374
1.9930	119.3159
1.9940	119.2945
1.9950	119.2730
1.9960	119.2515
1.9970	119.2301
1.9980	119.2086
1.9990	119.1872
2.0000	119.1657
